t,x(t)
0.0,0.0
1.0,0.05771419162521752
2.0,0.11540802060810347
3.0,0.17306112430632628
4.0,0.2306531400775544
5.0,0.28816370527945623
6.0,0.3455724572697003
7.0,0.4028590334059549
8.0,0.4600030710458886
9.0,0.5169842075471697
10.0,0.5737820802674668
11.0,0.6303763265644482
12.0,0.6867465837957824
13.0,0.7428724893191377
14.0,0.7987336804921829
15.0,0.8543097946725859
16.0,0.9095804692180156
17.0,0.9645253414861401
18.0,1.019124048834628
19.0,1.073356228621148
20.0,1.127201518203368
21.0,1.1806395549389566
22.0,1.2336499761855824
23.0,1.286212419300914
24.0,1.338306521642619
25.0,1.389911920568367
26.0,1.4410082534358255
27.0,1.4915751576026637
28.0,1.5415922704265492
29.0,1.5910392292651512
30.0,1.6398956714761375
31.0,1.6881412344171771
32.0,1.7357555554459378
33.0,1.7827182719200885
34.0,1.8290090211972978
35.0,1.8746074406352335
36.0,1.9194931675915645
37.0,1.9636458394239595
38.0,2.0070450934900865
39.0,2.0496705671476136
40.0,2.0915018977542097
41.0,2.1325187226675437
42.0,2.172700679245283
43.0,2.2120274048450965
44.0,2.2504785368246525
45.0,2.2880337125416204
46.0,2.3246725693536674
47.0,2.360374744618462
48.0,2.3951198756936734
49.0,2.4288875999369695
50.0,2.461657554706019
51.0,2.4934093773584904
52.0,2.5241227052520516
53.0,2.5537771757443712
54.0,2.5823524261931183
55.0,2.6098280939559606
56.0,2.636183816390567
57.0,2.6613992308546055
58.0,2.6854539747057453
59.0,2.7083276853016534
60.0,2.7299999999999995
61.0,2.750458141023006
62.0,2.7697196700511095
63.0,2.787809733629301
64.0,2.804753478302572
65.0,2.8205760506159137
66.0,2.835302597114317
67.0,2.848958264342774
68.0,2.861568198846275
69.0,2.873157547169811
70.0,2.8837514558583743
71.0,2.8933750714569544
72.0,2.902053540510544
73.0,2.9098120095641327
74.0,2.9166756251627137
75.0,2.9226695338512765
76.0,2.9278188821748126
77.0,2.9321488166783136
78.0,2.935684483906771
79.0,2.9384510304051736
80.0,2.940473602718516
81.0,2.941777347391787
82.0,2.9423874109699786
83.0,2.942328939998082
84.0,2.941627081021088
85.0,2.940306980583988
86.0,2.938393785231773
87.0,2.935912641509434
88.0,2.9328886959619624
89.0,2.92934709513435
90.0,2.925312985571587
91.0,2.920811513818665
92.0,2.9158678264205755
93.0,2.9105070699223083
94.0,2.904754390868856
95.0,2.8986349358052093
96.0,2.8921738512763593
97.0,2.8853962838272977
98.0,2.8783273800030145
99.0,2.8709922863485016
100.0,2.86341614940875
101.0,2.855624115728751
102.0,2.847641331853496
103.0,2.8394929443279757
104.0,2.8312040996971812
105.0,2.8227999445061043
106.0,2.814305625299736
107.0,2.8057462886230664
108.0,2.7971470810210874
109.0,2.788533149038791
110.0,2.779929639221167
111.0,2.771361698113208
112.0,2.762854472259903
113.0,2.7544331082062454
114.0,2.746122752497225
115.0,2.7379485516778344
116.0,2.729935652293063
117.0,2.7221092008879024
118.0,2.7144943440073446
119.0,2.7071162281963796
120.0,2.6999999999999997
121.0,2.693165790579055
122.0,2.6866136695578304
123.0,2.6803386911764706
124.0,2.6743359096751207
125.0,2.668600379293926
126.0,2.6631271542730306
127.0,2.657911288852578
128.0,2.652947837272715
129.0,2.648231853773585
130.0,2.643758392595333
131.0,2.6395225079781044
132.0,2.635519254162042
133.0,2.631743685387293
134.0,2.628190855894
135.0,2.624855819922309
136.0,2.621733631712363
137.0,2.6188193455043094
138.0,2.6161080155382908
139.0,2.6135946960544527
140.0,2.61127444129294
141.0,2.6091423054938954
142.0,2.6071933428974665
143.0,2.6054226077437965
144.0,2.60382515427303
145.0,2.6023960367253123
146.0,2.601130309340787
147.0,2.600023026359601
148.0,2.5990692420218964
149.0,2.5982640105678194
150.0,2.5976023862375137
151.0,2.5970794232711256
152.0,2.5966901759087984
153.0,2.596429698390677
154.0,2.5962930449569073
155.0,2.5962752698476317
156.0,2.596371427302997
157.0,2.596576571563147
158.0,2.596885756868226
159.0,2.5972940374583797
160.0,2.597796467573752
161.0,2.5983881014544883
162.0,2.599063993340733
163.0,2.59981919747263
164.0,2.6006487680903247
165.0,2.601547759433962
166.0,2.6025112257436867
167.0,2.6035342212596433
168.0,2.604611800221976
169.0,2.6057390168708294
170.0,2.606910925446349
171.0,2.6081225801886796
172.0,2.609369035337965
173.0,2.61064534513435
174.0,2.61194656381798
175.0,2.6132677456289994
176.0,2.614603944807553
177.0,2.6159502155937844
178.0,2.6173016122278403
179.0,2.6186531889498634
180.0,2.62
181.0,2.6213379096237377
182.0,2.6226660220879405
183.0,2.6239842516648166
184.0,2.6252925126265745
185.0,2.6265907192454203
186.0,2.627878785793563
187.0,2.62915662654321
188.0,2.630424155766569
189.0,2.631681287735849
190.0,2.632927936723257
191.0,2.6341640170010003
192.0,2.6353894428412876
193.0,2.636604128516326
194.0,2.637807988298324
195.0,2.6390009364594893
196.0,2.6401828872720294
197.0,2.6413537550081534
198.0,2.642513453940067
199.0,2.6436618983399787
200.0,2.644799002480098
201.0,2.64592468063263
202.0,2.647038847069785
203.0,2.6481414160637704
204.0,2.649232301886793
205.0,2.650311418811061
206.0,2.651378681108782
207.0,2.6524340030521643
208.0,2.6534772989134154
209.0,2.654508482964744
210.0,2.6555274694783577
211.0,2.656534172726463
212.0,2.6575285069812695
213.0,2.6585103865149837
214.0,2.6594797255998137
215.0,2.660436438507968
216.0,2.661380439511654
217.0,2.662311642883079
218.0,2.663229962894452
219.0,2.66413531381798
220.0,2.665027609925871
221.0,2.665906765490333
222.0,2.6667726947835737
223.0,2.6676253120778015
224.0,2.668464531645223
225.0,2.6692902677580466
226.0,2.6701024346884807
227.0,2.670900946708733
228.0,2.6716857180910103
229.0,2.6724566631075213
230.0,2.673213696030474
231.0,2.6739567311320758
232.0,2.6746856826845344
233.0,2.675400464960058
234.0,2.6761009922308547
235.0,2.676787178769132
236.0,2.6774589388470975
237.0,2.678116186736959
238.0,2.6787588367109247
239.0,2.6793868030412025
240.0,2.6799999999999997
241.0,2.6805983116667353
242.0,2.6811815013496667
243.0,2.681749302164262
244.0,2.6823014472259903
245.0,2.6828376696503202
246.0,2.6833577025527195
247.0,2.6838612790486565
248.0,2.6843481322536005
249.0,2.684817995283019
250.0,2.6852706012523813
251.0,2.6857056832771544
252.0,2.686122974472808
253.0,2.686522207954811
254.0,2.6869031168386295
255.0,2.687265434239734
256.0,2.687608893273592
257.0,2.687933227055672
258.0,2.688238168701443
259.0,2.688523451326373
260.0,2.68878880804593
261.0,2.689033971975583
262.0,2.6892586762308
263.0,2.6894626539270496
264.0,2.6896456381798
265.0,2.6898073621045206
266.0,2.6899475588166784
267.0,2.690065961431743
268.0,2.690162303065182
269.0,2.6902363168324634
270.0,2.6902877358490573
271.0,2.6903162932304303
272.0,2.6903217220920514
273.0,2.69030375554939
274.0,2.690262126717913
275.0,2.6901965687130893
276.0,2.6901068146503886
277.0,2.689992597645278
278.0,2.6898536508132254
279.0,2.6896897072697006
280.0,2.689500500130171
281.0,2.689285762510105
282.0,2.6890452275249723
283.0,2.68877862829024
284.0,2.6884856979213767
285.0,2.6881661695338517
286.0,2.687819776243132
287.0,2.687446251164687
288.0,2.6870453274139847
289.0,2.686616738106493
290.0,2.6861602163576825
291.0,2.6856754952830193
292.0,2.685162307997972
293.0,2.684620387618011
294.0,2.6840494672586015
295.0,2.6834492800352145
296.0,2.6828195590633177
297.0,2.6821600374583796
298.0,2.681470448335868
299.0,2.6807505248112524
300.0,2.68
301.0,2.6792189363019143
302.0,2.6784087132541345
303.0,2.677571039678136
304.0,2.676707624395391
305.0,2.6758201762273743
306.0,2.6749104039955607
307.0,2.6739800165214236
308.0,2.673030722626437
309.0,2.672064231132076
310.0,2.671082250859813
311.0,2.6700864906311232
312.0,2.6690786592674804
313.0,2.668060465590359
314.0,2.6670336184212333
315.0,2.6659998265815763
316.0,2.6649607988928627
317.0,2.6639182441765668
318.0,2.662873871254162
319.0,2.6618293889471234
320.0,2.6607865060769247
321.0,2.659746931465039
322.0,2.6587123739329415
323.0,2.657684542302106
324.0,2.656665145394007
325.0,2.6556558920301176
326.0,2.654658491031913
327.0,2.6536746512208658
328.0,2.6527060814184513
329.0,2.6517544904461436
330.0,2.6508215871254164
331.0,2.6499090802777436
332.0,2.6490186787245995
333.0,2.6481520912874585
334.0,2.647311026787794
335.0,2.646497194047081
336.0,2.6457123018867925
337.0,2.6449580591284034
338.0,2.644236174593387
339.0,2.6435483571032186
340.0,2.6428963154793714
341.0,2.64228175854332
342.0,2.6417063951165374
343.0,2.641171934020498
344.0,2.6406800840766778
345.0,2.6402325541065483
346.0,2.6398310529315854
347.0,2.6394772893732616
348.0,2.639172972253052
349.0,2.638919810392431
350.0,2.6387195126128717
351.0,2.6385737877358495
352.0,2.638484344582837
353.0,2.6384528919753087
354.0,2.6384811387347393
355.0,2.638570793682602
356.0,2.638723565640372
357.0,2.6389411634295232
358.0,2.6392252958715288
359.0,2.6395776717878627
360.0,2.64
361.0,2.6404933505330157
362.0,2.641056238226388
363.0,2.6416865391231967
364.0,2.6423821292665215
365.0,2.6431408846994424
366.0,2.643960681465039
367.0,2.644839395606391
368.0,2.645774903166578
369.0,2.64676508018868
370.0,2.6478078027157754
371.0,2.648900946790946
372.0,2.65004238845727
373.0,2.6512300037578274
374.0,2.6524616687356986
375.0,2.6537352594339625
376.0,2.6550486518956986
377.0,2.656399722163988
378.0,2.657786346281909
379.0,2.659206400292542
380.0,2.6606577602389665
381.0,2.6621383021642617
382.0,2.663645902111509
383.0,2.665178436123786
384.0,2.6667337802441735
385.0,2.668309810515751
386.0,2.669904402981598
387.0,2.671515433684795
388.0,2.6731407786684205
389.0,2.6747783139755557
390.0,2.6764259156492787
391.0,2.67808145973267
392.0,2.6797428222688096
393.0,2.681407879300777
394.0,2.683074506871652
395.0,2.6847405810245135
396.0,2.6864039778024416
397.0,2.6880625732485166
398.0,2.689714243405818
399.0,2.6913568643174255
400.0,2.692988312026418
401.0,2.6946064625758757
402.0,2.6962091920088795
403.0,2.6977943763685066
404.0,2.6993598916978394
405.0,2.700903614039956
406.0,2.702423419437936
407.0,2.70391718393486
408.0,2.705382783573807
409.0,2.7068180943978573
410.0,2.70822099245009
411.0,2.709589353773585
412.0,2.7109210544114224
413.0,2.712213970406681
414.0,2.713465977802442
415.0,2.7146749526417837
416.0,2.7158387709677863
417.0,2.7169553088235294
418.0,2.718022442252093
419.0,2.719038047296557
420.0,2.72
421.0,2.7209065967512096
422.0,2.721757815321796
423.0,2.7225540538290787
424.0,2.7232957103903757
425.0,2.723983183123005
426.0,2.7246168701442843
427.0,2.7251971695715325
428.0,2.725724479522068
429.0,2.7261991981132074
430.0,2.726621723462271
431.0,2.726992453686576
432.0,2.727311786903441
433.0,2.7275801212301833
434.0,2.7277978547841224
435.0,2.7279653856825754
436.0,2.72808311204286
437.0,2.7281514319822966
438.0,2.728170743618202
439.0,2.7281414450678945
440.0,2.7280639344486923
441.0,2.7279386098779135
442.0,2.7277658694728766
443.0,2.7275461113509
444.0,2.7272797336293007
445.0,2.726967134425399
446.0,2.7266087118565103
447.0,2.7262048640399557
448.0,2.7257559890930514
449.0,2.725262485133117
450.0,2.724724750277469
451.0,2.7241431826434277
452.0,2.7235181803483104
453.0,2.7228501415094337
454.0,2.7221394642441186
455.0,2.7213865466696814
456.0,2.720591786903441
457.0,2.7197555830627147
458.0,2.718878333264822
459.0,2.7179604356270812
460.0,2.717002288266809
461.0,2.716004289301325
462.0,2.7149668368479465
463.0,2.713890329023993
464.0,2.7127751639467803
465.0,2.711621739733629
466.0,2.7104304545018567
467.0,2.709201706368781
468.0,2.70793589345172
469.0,2.7066334138679933
470.0,2.705294665734917
471.0,2.7039200471698113
472.0,2.7025099562899935
473.0,2.7010647912127816
474.0,2.6995849500554936
475.0,2.698070830935449
476.0,2.696522831969965
477.0,2.6949413512763596
478.0,2.6933267869719515
479.0,2.6916795371740587
480.0,2.69
481.0,2.6882885957954814
482.0,2.6865458338197614
483.0,2.6847722455604885
484.0,2.6829683625053096
485.0,2.681134716141872
486.0,2.6792718379578244
487.0,2.677380259440813
488.0,2.675460512078486
489.0,2.6735131273584907
490.0,2.671538636768474
491.0,2.6695375717960834
492.0,2.6675104639289677
493.0,2.6654578446547728
494.0,2.6633802454611475
495.0,2.661278197835738
496.0,2.6591522332661928
497.0,2.6570028832401587
498.0,2.654830679245283
499.0,2.652636152769214
500.0,2.6504198352995987
501.0,2.648182258324084
502.0,2.645923953330319
503.0,2.6436454518059493
504.0,2.6413472852386235
505.0,2.639029985115989
506.0,2.6366940829256924
507.0,2.634340110155383
508.0,2.631968598292706
509.0,2.6295800788253105
510.0,2.6271750832408434
511.0,2.6247541430269523
512.0,2.6223177896712846
513.0,2.619866554661487
514.0,2.617400969485208
515.0,2.614921565630095
516.0,2.6124288745837956
517.0,2.609923427833957
518.0,2.607405756868226
519.0,2.604876393174251
520.0,2.602335868239679
521.0,2.599784713552157
522.0,2.597223460599334
523.0,2.5946526408688557
524.0,2.592072785848371
525.0,2.589484427025527
526.0,2.5868880958879705
527.0,2.5842843239233497
528.0,2.581673642619312
529.0,2.579056583463504
530.0,2.576433677943574
531.0,2.57380545754717
532.0,2.571172453761938
533.0,2.5685351980755264
534.0,2.5658942219755825
535.0,2.563250056949754
536.0,2.5606032344856877
537.0,2.5579542860710323
538.0,2.555303743193434
539.0,2.552652137340541
540.0,2.55
